       2515.7231     2.08322E-06
       2496.8789     9.77168E-06
       2487.5623     7.82875E-06
       2469.1357     1.72469E-05
       2460.0247     2.18765E-05
       2389.4863     2.29770E-05
       2314.8147     3.44001E-05
       2298.8506     2.92955E-05
       2252.2524     3.81225E-05
       2229.6543     4.19066E-05
       2143.6226     5.25458E-05
       2089.8643     5.47834E-05
       2063.9834     2.99008E-05
       2057.6130     3.00542E-05
       2026.3424     4.67778E-05
       2002.0020     9.46473E-06
       1990.0497     6.97370E-05
       1960.7843     1.71813E-05
       1937.9845     1.50080E-05
       1915.7087     1.98779E-06
       1904.7620     3.90705E-07
       1899.3352     5.25816E-07
       1883.2391     1.96847E-06
       1872.6592     2.54327E-07
       1867.4137     7.03670E-07
       1836.5472     4.34346E-07
       1796.9452     9.23756E-05
       1731.6017     1.87242E-04
       1696.3528     2.22832E-04
       1670.8438     2.42252E-04
       1622.0601     3.01831E-04
       1610.3059     2.75990E-04
       1579.7788     3.40560E-04
       1557.6324     4.48231E-04
       1550.3876     4.65379E-04
       1539.6459     4.77556E-04
       1525.5530     5.13597E-04
       1515.1515     5.08213E-04
       1439.8848     2.00488E-04
       1433.6918     1.46458E-04
       1424.5015     1.45865E-04
       1421.4641     1.80372E-04
       1418.4397     9.41062E-05
       1391.7885     1.98044E-05
       1366.1202     4.95735E-06
       1349.5277     1.87735E-04
       1346.8014     3.42203E-04
       1344.0861     5.73486E-04
       1330.6720     7.18200E-04
       1299.5452     1.28990E-03
       1279.5905     1.31689E-03
       1269.8413     9.44464E-04
       1234.5679     1.68196E-03
       1203.3694     1.58203E-03
       1139.6011     1.62052E-03
       1129.9435     9.49500E-04
       1124.2271     1.12797E-03
       1064.9628     2.94997E-03
       1044.9321     3.28295E-03
       1040.0416     3.34336E-03
       1024.0656     3.54218E-03
       1011.6337     3.68871E-03
       1002.5062     3.77575E-03
        976.0859     3.31643E-03
        952.3810     2.21745E-03
        932.4009     1.99629E-03
        924.6417     4.23850E-03
        891.2656     5.49728E-03
        880.6693     5.48630E-03
        870.3220     5.86766E-03
        856.8980     6.12971E-03
        830.2200     5.84327E-03
        829.1874     5.75520E-03
        804.1818     6.70517E-03
        768.9350     6.93148E-03
        764.5260     2.88882E-03
        760.1672     1.05916E-03
        750.7508     7.62624E-03
        725.4262     6.95567E-03
        724.6377     6.77005E-03
        705.4673     8.19500E-03
        704.7216     8.36062E-03
        699.5453     8.24252E-03
        690.1311     6.56647E-03
        689.4174     6.09346E-03
        665.3360     8.86663E-03
        648.5084     8.76256E-03
        636.1323     8.57273E-03
        630.7158     8.55095E-03
        602.2282     8.92240E-03
        589.9705     8.68632E-03
        587.8895     9.59041E-03
        575.7052     9.10644E-03
        559.7537     9.72088E-03
        555.5556     9.95005E-03
        517.5983     9.00263E-03
        508.9058     1.10678E-02
        474.1584     1.17060E-02
        447.1272     1.09191E-02
        415.3687     1.08173E-02
        365.8983     8.72359E-03
        356.5062     6.86936E-03
        331.5100     4.12033E-03
        326.9577     5.66511E-03
        314.7624     1.34360E-03
        314.1690     1.32596E-03
        310.5108     5.94330E-04
        309.0712     3.21814E-04
        300.8423     3.23202E-05
        295.3773     3.22711E-05
  OUTPUT    MAX:     1.17060E+01 (WAVELENGTHS IN NANOMETERS; TOTAL SPECTRAL RADIANCE IN MICRO-WATTS SR-1 CM-2 / NANOMETER)
